#           time (fs)    |     mu_x (e.angstrom)   |     mu_y (e.angstrom)   |     mu_z (e.angstrom)   |
        0.000000000000000        0.046043201421866        0.374630950141343        0.035752679038093
        0.002418884326505        0.046058006284980        0.374631718499977        0.035774813331415
        0.004837768653010        0.046072811190755        0.374632486848389        0.035796947633931
        0.007256652979515        0.046086522854274        0.374633024022896        0.035817983049223
        0.009675537306020        0.046100234524238        0.374633561196402        0.035839018466000
        0.012094421632525        0.046111874483847        0.374633690834147        0.035857933312164
        0.014513305959030        0.046123514448749        0.374633820470707        0.035876848159559
        0.016932190285535        0.046132318828733        0.374633463614189        0.035892767140325
        0.019351074612040        0.046141123212440        0.374633106756487        0.035908686121955
        0.021769958938545        0.046146614863426        0.374632302578935        0.035920934578383
        0.024188843265050        0.046152106516254        0.374631498400326        0.035933183035222
        0.026607727591555        0.046154130820378        0.374630398041580        0.035941321386822
        0.029026611918060        0.046156155124317        0.374629297681973        0.035949459738339
        0.031445496244565        0.046154876130071        0.374628131906034        0.035953295884864
        0.033864380571070        0.046153597133626        0.374626966129526        0.035957132030824
        0.036283264897575        0.046149456346667        0.374625993191366        0.035956712322392
        0.038702149224080        0.046145315555705        0.374625020253023        0.035956292612983
        0.041121033550585        0.046138960860952        0.374624464808120        0.035951874590911
        0.043539917877090        0.046132606160719        0.374623909363498        0.035947456567554
        0.045958802203595        0.046124802193451        0.374623905533799        0.035939468644810
        0.048377686530100        0.046116998219611        0.374623901704841        0.035931480720583
        0.050796570856605        0.046108531481651        0.374624453017694        0.035920475038377
        0.053215455183110        0.046100064736463        0.374625004331619        0.035909469354610
        0.055634339509615        0.046091656627600        0.374625970193148        0.035896074106777
        0.058053223836120        0.046083248511261        0.374626936055892        0.035882678857408
        0.060472108162625        0.046075487323560        0.374628049262745        0.035867555473938
        0.062890992489130        0.046067726128553        0.374629162470730        0.035852432089055
        0.065309876815635        0.046061025363408        0.374630075991902        0.035836241028481
        0.067728761142140        0.046054324591529        0.374630989513973        0.035820049966722
        0.070147645468645        0.046048910375028        0.374631344621800        0.035803426811682
        0.072566529795150        0.046043496152723        0.374631699730256        0.035786803655768
        0.074985414121655        0.046039421834329        0.374631202766039        0.035770345118464
        0.077404298448160        0.046035347511343        0.374630705802243        0.035753886580665
        0.079823182774665        0.046032529505027        0.374629198428989        0.035738144272051
        0.082242067101170        0.046029711495521        0.374627691056053        0.035722401963347
        0.084660951427675        0.046027977684430        0.374625199340661        0.035707880649795
        0.087079835754180        0.046026243871583        0.374622707625607        0.035693359336528
        0.089498720080685        0.046025384821341        0.374619458708234        0.035680516062427
        0.091917604407190        0.046024525770696        0.374616209791321        0.035667672788922
        0.094336488733695        0.046024339654653        0.374612610671453        0.035656913694796
        0.096755373060200        0.046024153539378        0.374609011552256        0.035646154601473
        0.099174257386705        0.046024477840776        0.374605591605967        0.035637827379368
        0.101593141713210        0.046024802143887        0.374602171660643        0.035629500158167
        0.104012026039715        0.046025528387156        0.374599497574343        0.035623881607785
        0.106430910366220        0.046026254632827        0.374596823489352        0.035618263058307
        0.108849794692725        0.046027325976948        0.374595400990976        0.035615542820018
        0.111268679019230        0.046028397323895        0.374593978494249        0.035612822582534
        0.113687563345735        0.046029792159502        0.374594158447658        0.035613085503050
        0.116106447672240        0.046031186998084        0.374594338402949        0.035613348424176
        0.118525331998745        0.046032894145728        0.374596244818425        0.035616558887095
        0.120944216325250        0.046034601296188        0.374598151235811        0.035619769350327
        0.123363100651755        0.046036593612009        0.374601645439965        0.035625761109648
        0.125781984978260        0.046038585930202        0.374605139645772        0.035631752868886
        0.128200869304765        0.046040798940327        0.374609828770652        0.035640227421751
        0.130619753631270        0.046043011952150        0.374614517896685        0.035648701974067
        0.133038637957775        0.046045332675614        0.374619808047581        0.035659237396380
        0.135457522284280        0.046047653399951        0.374625098198984        0.035669772817653
        0.137876406610785        0.046049922128404        0.374630284548069        0.035681843471767
        0.140295290937290        0.046052190856863        0.374635470897034        0.035693914124373
        0.142714175263795        0.046054215840515        0.374639850021014        0.035706920011375
        0.145133059590300        0.046056240823372        0.374644229144380        0.035719925896486
        0.147551943916805        0.046057823124231        0.374647214486926        0.035733228963065
        0.149970828243310        0.046059405423623        0.374650199828574        0.035746532027480
        0.152389712569815        0.046060369146698        0.374651420095683        0.035759495706564
        0.154808596896320        0.046061332867793        0.374652640361801        0.035772459383338
        0.157227481222825        0.046061554932996        0.374652003219282        0.035784487221500
        0.159646365549330        0.046061776995877        0.374651366075801        0.035796515057335
        0.162065249875835        0.046061210726356        0.374649075316957        0.035807084517966
        0.164484134202340        0.046060644454323        0.374646784557269        0.035817653976365
        0.166903018528845        0.046059332463010        0.374643306948599        0.035826342342047
        0.169321902855350        0.046058020469148        0.374639829339264        0.035835030705691
        0.171740787181855        0.046056094351697        0.374635816208929        0.035841531265781
        0.174159671508360        0.046054168231784        0.374631803078178        0.035848031824112
        0.176578555834865        0.046051835003232        0.374627979793376        0.035852159983380
        0.178997440161370        0.046049501772444        0.374624156508459        0.035856288141241
        0.181416324487875        0.046047019340844        0.374621198820952        0.035857978458112
        0.183835208814380        0.046044536907333        0.374618241133641        0.035859668773971
        0.186254093140885        0.046042182716916        0.374616659877947        0.035858964995306
        0.188672977467390        0.046039828524993        0.374615078622688        0.035858261216048
        0.191091861793895        0.046037866500724        0.374615132942154        0.035855301953598
        0.193510746120400        0.046035904475397        0.374615187262134        0.035852342690970
        0.195929630446905        0.046034555409908        0.374616841617455        0.035847345416098
        0.198348514773410        0.046033206343838        0.374618495973140        0.035842348141446
        0.200767399099915        0.046032625936528        0.374621428514090        0.035835593702508
        0.203186283426420        0.046032045529150        0.374624361055078        0.035828839264172
        0.205605167752925        0.046032312644212        0.374628021874777        0.035820658293708
        0.208024052079430        0.046032579759749        0.374631682694091        0.035812477324202
        0.210442936405935        0.046033695473215        0.374635391657762        0.035803238905523
        0.212861820732440        0.046034811187724        0.374639100620633        0.035794000488120
        0.215280705058945        0.046036707253657        0.374642167456980        0.035784102519779
        0.217699589385450        0.046038603321217        0.374645234292163        0.035774204552989
        0.220118473711955        0.046041157184236        0.374647079717176        0.035764064588445
        0.222537358038460        0.046043711049404        0.374648925140741        0.035753924625639
        0.224956242364965        0.046046763738652        0.374649181659497        0.035743969712895
        0.227375126691470        0.046049816430435        0.374649438176604        0.035734014801951
        0.229794011017975        0.046053189705546        0.374648012900193        0.035724669051861
        0.232212895344480        0.046056562983381        0.374646587622002        0.035715323303495
        0.234631779670985        0.046060072906349        0.374643676275608        0.035706992524228
        0.237050663997490        0.046063582832003        0.374640764927407        0.035698661746456
        0.239469548323995        0.046067048290759        0.374636814975128        0.035691715355578
        0.241888432650500        0.046070513751944        0.374632865021145        0.035684768965838
        0.244307316977005        0.046073760034239        0.374628494911303        0.035679520334049
        0.246726201303510        0.046077006318482        0.374624124800033        0.035674271702926
        0.249145085630015        0.046079865260901        0.374620014105616        0.035670958879738
        0.251563969956520        0.046082724204613        0.374615903410172        0.035667646056665
        0.253982854283025        0.046085033394550        0.374612673707045        0.035666415291801
        0.256401738609530        0.046087342584960        0.374609444003355        0.035665184526438
        0.258820622936035        0.046088946354045        0.374607551795311        0.035666079010195
        0.261239507262540        0.046090550122634        0.374605659587146        0.035666973492788
        0.263658391589045        0.046091304574761        0.374605320209350        0.035669929264859
        0.266077275915550        0.046092059025355        0.374604980831786        0.035672885035089
        0.268496160242055        0.046091842196460        0.374606136499379        0.035677735124016
        0.270915044568560        0.046091625364978        0.374607292167468        0.035682585210432
        0.273333928895065        0.046090352066768        0.374609629253531        0.035689071920201
        0.275752813221570        0.046089078765022        0.374611966340302        0.035695558626852
        0.278171697548075        0.046086718070294        0.374614978049484        0.035703352695499
        0.280590581874580        0.046084357371270        0.374617989759611        0.035711146760528
        0.283009466201085        0.046080949424501        0.374621072235177        0.035719871103979
        0.285428350527590        0.046077541472925        0.374624154711973        0.035728595443447
        0.287847234854095        0.046073209673406        0.374626718741693        0.035737850562597
        0.290266119180600        0.046068877868851        0.374629282772927        0.035747105677560
        0.292685003507105        0.046063832666745        0.374630860687514        0.035756493674246
        0.295103887833610        0.046058787459624        0.374632438603824        0.035765881666690
        0.297522772160115        0.046053319052907        0.374632767122844        0.035775026215281
        0.299941656486620        0.046047850641407        0.374633095643630        0.035784170759717
        0.302360540813125        0.046042309609479        0.374632160065015        0.035792731243088
        0.304779425139630        0.046036768573166        0.374631224488036        0.035801291722530
        0.307198309466135        0.046031535623286        0.374629256852558        0.035808970900925
        0.309617193792640        0.046026302669552        0.374627289218443        0.035816650075744
        0.312036078119145        0.046021750800676        0.374624721557675        0.035823195891378
        0.314454962445650        0.046017198928568        0.374622153897956        0.035829741703911
        0.316873846772155        0.046013653010386        0.374619535829736        0.035834944893192
        0.319292731098660        0.046010107089664        0.374616917762286        0.035840148079957
        0.321711615425165        0.046007806754343        0.374614814042944        0.035843837958369
        0.324130499751670        0.046005506417189        0.374612710324156        0.035847527834937
        0.326549384078175        0.046004578047702        0.374611597363716        0.035849568798161
        0.328968268404680        0.046003649677019        0.374610484403681        0.035851609760242
        0.331387152731185        0.046004092115420        0.374610664615418        0.035851900669442
        0.333806037057690        0.046004534553116        0.374610844827454        0.035852191578185
        0.336224921384195        0.046006221110885        0.374612394090432        0.035850669337519
        0.338643805710700        0.046007907668271        0.374613943353632        0.035849147097030
        0.341062690037205        0.046010604438882        0.374616700525912        0.035845794554124
        0.343481574363710        0.046013301209277        0.374619457698415        0.035842442011965
        0.345900458690215        0.046016699014173        0.374623057238026        0.035837299050978
        0.348319343016720        0.046020096818903        0.374626656777954        0.035832156091236
        0.350738227343225        0.046023851846885        0.374630597585177        0.035825331698864
        0.353157111669730        0.046027606874673        0.374634538392957        0.035818507308160
        0.355575995996235        0.046031383625023        0.374638275451167        0.035810189704485
        0.357994880322740        0.046035160375097        0.374642012510267        0.035801872102811
        0.360413764649245        0.046038670167823        0.374645053962674        0.035792333898127
        0.362832648975750        0.046042179960151        0.374648095416320        0.035782795695675
        0.365251533302255        0.046045209114853        0.374650087065045        0.035772391514494
        0.367670417628760        0.046048238268950        0.374652078715251        0.035761987335638
        0.370089301955265        0.046050661940619        0.374652860638352        0.035751142376833
        0.372508186281770        0.046053085611395        0.374653642562989        0.035740297420298
        0.374927070608275        0.046054865873589        0.374653268059662        0.035729486827828
        0.377345954934780        0.046056646134509        0.374652893557726        0.035718676237420
        0.379764839261285        0.046057815745595        0.374651607880876        0.035708396692185
        0.382183723587790        0.046058985354972        0.374650322205107        0.035698117148671
        0.384602607914295        0.046059621208524        0.374648506142800        0.035688853480205
        0.387021492240800        0.046060257059869        0.374646690081192        0.035679589812993
        0.389440376567305        0.046060449127377        0.374644779974400        0.035671780411094
        0.391859260893810        0.046060641192156        0.374642869867893        0.035663971009876
        0.394278145220315        0.046060463473544        0.374641269890871        0.035657976201054
        0.396697029546820        0.046060285751660        0.374639669913702        0.035651981392250
        0.399115913873325        0.046059775216989        0.374638673628346        0.035648058649938
        0.401534798199830        0.046059264678484        0.374637677342430        0.035644135906902
        0.403953682526335        0.046058412504473        0.374637413484548        0.035642424826098
        0.406372566852840        0.046057560326087        0.374637149625708        0.035640713743772
        0.408791451179345        0.046056317213282        0.374637562215416        0.035641232286650
        0.411210335505850        0.046055074095631        0.374637974803870        0.035641750827191
        0.413629219832355        0.046053368567046        0.374638840946142        0.035644402682086
        0.416048104158860        0.046051663033305        0.374639707087039        0.035647054533869
        0.418466988485365        0.046049428910916        0.374640688533180        0.035651645817857
        0.420885872811870        0.046047194783265        0.374641669978102        0.035656237098035
        0.423304757138375        0.046044402034984        0.374642388041575        0.035662499356371
        0.425723641464880        0.046041609281569        0.374643106104306        0.035668761610315
        0.428142525791385        0.046038291525122        0.374643225084093        0.035676377347611
        0.430561410117890        0.046034973763884        0.374643344063897        0.035683993080064
        0.432980294444395        0.046031246099778        0.374642646749460        0.035692620018787
        0.435399178770900        0.046027518431385        0.374641949435996        0.035701246952350
        0.437818063097405        0.046023580909293        0.374640389827554        0.035710537849922
        0.440236947423910        0.046019643383538        0.374638830221095        0.035719828742141
        0.442655831750415        0.046015768002949        0.374636552979975        0.035729444779189
        0.445074716076920        0.046011892619372        0.374634275741809        0.035739060810815
        0.447493600403425        0.046008394857110        0.374631598242047        0.035748678059715
        0.449912484729930        0.046004897092538        0.374628920746111        0.035758295303241
        0.452331369056435        0.046002095965742        0.374626280717796        0.035767605308578
        0.454750253382940        0.045999294837299        0.374623640694011        0.035776915308707
        0.457169137709445        0.045997467882124        0.374621518984282        0.035785622065999
        0.459588022035950        0.045995640925897        0.374619397279579        0.035794328818354
        0.462006906362455        0.045994981739561        0.374618229982185        0.035802145180696
        0.464425790688960        0.045994322552616        0.374617062690046        0.035809961538436
        0.466844675015465        0.045994908445682        0.374617158931501        0.035816608165634
        0.469263559341970        0.045995494338356        0.374617255178152        0.035823254788593
        0.471682443668475        0.045997270159395        0.374618735832544        0.035828464158060
