#           time (fs)    |     mu_x (e.angstrom)   |     mu_y (e.angstrom)   |     mu_z (e.angstrom)   |
        0.000000000000000       -0.062108386679946        0.337892490974665       -0.268298534966600
        0.002418884326505       -0.062066273561201        0.337892413014432       -0.268304793058634
        0.004837768653010       -0.062024160343153        0.337892335154784       -0.268311051250595
        0.007256652979515       -0.061984197171500        0.337891908155601       -0.268316678013012
        0.009675537306020       -0.061944233996710        0.337891481157617       -0.268322304777109
        0.012094421632525       -0.061908430821650        0.337890430969098       -0.268326754493076
        0.014513305959030       -0.061872627644622        0.337889380775882       -0.268331204205601
        0.016932190285535       -0.061842725838974        0.337887569943138       -0.268334089591672
        0.019351074612040       -0.061812824032667        0.337885759100179       -0.268336974969460
        0.021769958938545       -0.061790189885602        0.337883223528430       -0.268338115251863
        0.024188843265050       -0.061767555739288        0.337880687941906       -0.268339255521910
        0.026607727591555       -0.061753104035937        0.337877642083513       -0.268338693194159
        0.029026611918060       -0.061738652334788        0.337874596207232       -0.268338130851165
        0.031445496244565       -0.061732805054135        0.337871405425220       -0.268336115124568
        0.033864380571070       -0.061726957777125        0.337868214623919       -0.268334099381265
        0.036283264897575       -0.061729639497982        0.337865339258611       -0.268331039836523
        0.038702149224080       -0.061732321223853        0.337862463874364       -0.268327980275081
        0.041121033550585       -0.061742989412408        0.337860384516880       -0.268324378954109
        0.043539917877090       -0.061753657607214        0.337858305142327       -0.268320777617742
        0.045958802203595       -0.061771362968193        0.337857441921643       -0.268317151059667
        0.048377686530100       -0.061789068336474        0.337856578686858       -0.268313524488453
        0.050796570856605       -0.061812538158445        0.337857218434355       -0.268310328482105
        0.053215455183110       -0.061836007988538        0.337857858171292       -0.268307132465400
        0.055634339509615       -0.061863744099351        0.337860101965495       -0.268304701384862
        0.058053223836120       -0.061891480218848        0.337862345752757       -0.268302270296871
        0.060472108162625       -0.061921862847318        0.337866085822533       -0.268300780008681
        0.062890992489130       -0.061952245484733        0.337869825888686       -0.268299289715751
        0.065309876815635       -0.061983634920928        0.337874755799552       -0.268298748736964
        0.067728761142140       -0.062015024366012        0.337879685709606       -0.268298207755791
        0.070147645468645       -0.062045853632594        0.337885342072084       -0.268298476380641
        0.072566529795150       -0.062076682907664        0.337890998435997       -0.268298745005058
        0.074985414121655       -0.062105536431780        0.337896827055612       -0.268299577380718
        0.077404298448160       -0.062134389963632        0.337902655678404       -0.268300409757549
        0.079823182774665       -0.062160065179710        0.337908091035916       -0.268301510194179
        0.082242067101170       -0.062185740402410        0.337913526397915       -0.268302610633290
        0.084660951427675       -0.062207291049039        0.337918071287742       -0.268303693394338
        0.087079835754180       -0.062228841700777        0.337922616183023       -0.268304776158969
        0.089498720080685       -0.062245603090050        0.337925908573739       -0.268305617902547
        0.091917604407190       -0.062262364482523        0.337929200970621       -0.268306459650663
        0.094336488733695       -0.062273962096832        0.337931057599808       -0.268306935532808
        0.096755373060200       -0.062285559712050        0.337932914235687       -0.268307411420361
        0.099174257386705       -0.062291903096419        0.337933344641182       -0.268307509239416
        0.101593141713210       -0.062298246479085        0.337933775053754       -0.268307607064685
        0.104012026039715       -0.062299510609807        0.337932964905824       -0.268307418073113
        0.106430910366220       -0.062300774736018        0.337932154765245       -0.268307229088505
        0.108849794692725       -0.062297370983715        0.337930422576348       -0.268306918435866
        0.111268679019230       -0.062293967224134        0.337928690394939       -0.268306607790807
        0.113687563345735       -0.062286505845125        0.337926426034133       -0.268306371205363
        0.116106447672240       -0.062279044456399        0.337924161680736       -0.268306134627875
        0.118525331998745       -0.062268290385698        0.337921757872356       -0.268306150258348
        0.120944216325250       -0.062257536303500        0.337919354070968       -0.268306165896744
        0.123363100651755       -0.062244359991416        0.337917142777126       -0.268306550840566
        0.125781984978260       -0.062231183666999        0.337914931489420       -0.268306935791746
        0.128200869304765       -0.062216508842689        0.337913135701134       -0.268307715673648
        0.130619753631270       -0.062201834006346        0.337911339917658       -0.268308495561740
        0.133038637957775       -0.062186584541888        0.337910048221772       -0.268309592860180
        0.135457522284280       -0.062171335066846        0.337908756528961       -0.268310690163090
        0.137876406610785       -0.062156383469827        0.337907923497873       -0.268311933342643
        0.140295290937290       -0.062141431864658        0.337907090467892       -0.268313176524579
        0.142714175263795       -0.062127552223344        0.337906561244784       -0.268314328112731
        0.145133059590300       -0.062113672577008        0.337906032020816       -0.268315479701061
        0.147551943916805       -0.062101500888491        0.337905585290114       -0.268316277973081
        0.149970828243310       -0.062089329198389        0.337905138556871       -0.268317076243261
        0.152389712569815       -0.062079333817564        0.337904539126130       -0.268317282771778
        0.154808596896320       -0.062069338438459        0.337903939691699       -0.268317489296897
        0.157227481222825       -0.062061802836358        0.337902990649465       -0.268316933693086
        0.159646365549330       -0.062054267238783        0.337902041603135       -0.268316378085033
        0.162065249875835       -0.062049286362044        0.337900626614121       -0.268314991932609
        0.164484134202340       -0.062044305491839        0.337899211621470       -0.268313605775963
        0.166903018528845       -0.062041795851509        0.337897320187830       -0.268311439865135
        0.169321902855350       -0.062039286218749        0.337895428751904       -0.268309273951025
        0.171740787181855       -0.062039008548084        0.337893160722128       -0.268306496027508
        0.174159671508360       -0.062038730884949        0.337890892692188       -0.268303718102487
        0.176578555834865       -0.062040322970996        0.337888442252614       -0.268300591854649
        0.178997440161370       -0.062041915063461        0.337885991815521       -0.268297465607715
        0.181416324487875       -0.062044931360774        0.337883614904732       -0.268294314867517
        0.183835208814380       -0.062047947662420        0.337881237999206       -0.268291164130919
        0.186254093140885       -0.062051901696039        0.337879209869941       -0.268288328674532
        0.188672977467390       -0.062055855731082        0.337877181748401       -0.268285493224332
        0.191091861793895       -0.062060261188471        0.337875752792124       -0.268283283716630
        0.193510746120400       -0.062064666643761        0.337874323845280       -0.268281074217169
        0.195929630446905       -0.062069073464273        0.337873681600209       -0.268279733588914
        0.198348514773410       -0.062073480278812        0.337873039365215       -0.268278392970140
        0.200767399099915       -0.062077502912213        0.337873282965723       -0.268278069957532
        0.203186283426420       -0.062081525535705        0.337873526575778       -0.268277746954670
        0.205605167752925       -0.062084861723652        0.337874657161026       -0.268278485018404
        0.208024052079430       -0.062088197897989        0.337875787754231       -0.268279223091232
        0.210442936405935       -0.062090637646772        0.337877715118344       -0.268280964985717
        0.212861820732440       -0.062093077378797        0.337879642488085       -0.268282706887929
        0.215280705058945       -0.062094503032555        0.337882205176236       -0.268285312351195
        0.217699589385450       -0.062095928667204        0.337884767867378       -0.268287917820412
        0.220118473711955       -0.062096307968317        0.337887761597381       -0.268291189732197
        0.222537358038460       -0.062096687248983        0.337890755327895       -0.268294461648106
        0.224956242364965       -0.062096061846713        0.337893963468729       -0.268298174935017
        0.227375126691470       -0.062095436423788        0.337897171608161       -0.268301888224488
        0.229794011017975       -0.062093908396828        0.337900391648084       -0.268305815932989
        0.232212895344480       -0.062092380350141        0.337903611685561       -0.268309743643005
        0.234631779670985       -0.062090098960687        0.337906673068422       -0.268313675863286
        0.237050663997490       -0.062087817553499        0.337909734448832       -0.268317608084710
        0.239469548323995       -0.062084967747460        0.337912505493682       -0.268321361478688
        0.241888432650500       -0.062082117926559        0.337915276537145       -0.268325114874159
        0.244307316977005       -0.062078911193775        0.337917660856336       -0.268328532972490
        0.246726201303510       -0.062075704449652        0.337920045176168       -0.268331951073354
        0.249145085630015       -0.062072371748917        0.337921970481676       -0.268334897734641
        0.251563969956520       -0.062069039040732        0.337923895790588       -0.268337844400048
        0.253982854283025       -0.062065824761218        0.337925299696322       -0.268340194395284
        0.256401738609530       -0.062062610478250        0.337926703608630       -0.268342544396543
        0.258820622936035       -0.062059765998672        0.337927521633544       -0.268344175662931
        0.261239507262540       -0.062056921519480        0.337928339668196       -0.268345806937266
        0.263658391589045       -0.062054696919871        0.337928499996304       -0.268346598518985
        0.266077275915550       -0.062052472324118        0.337928660336910       -0.268347390110308
        0.268496160242055       -0.062051105204562        0.337928088136261       -0.268347228285065
        0.270915044568560       -0.062049738091782        0.337927515950073       -0.268347066470526
        0.273333928895065       -0.062049439179388        0.337926147569123       -0.268345859375912
        0.275752813221570       -0.062049140275967        0.337924779203522       -0.268344652292344
        0.278171697548075       -0.062050076412611        0.337922583886681       -0.268342350986441
        0.280590581874580       -0.062051012559575        0.337920388584845       -0.268340049691059
        0.283009466201085       -0.062053288576916        0.337917393066016       -0.268336671527708
        0.285428350527590       -0.062055564605014        0.337914397560621       -0.268333293373508
        0.287847234854095       -0.062059206323282        0.337910707522324       -0.268328942308464
        0.290266119180600       -0.062062848051797        0.337907017494857       -0.268324591250522
        0.292685003507105       -0.062067789028034        0.337902829762902       -0.268319469532825
        0.295103887833610       -0.062072730013118        0.337898642038490       -0.268314347819781
        0.297522772160115       -0.062078804614743        0.337894242610164       -0.268308754557798
        0.299941656486620       -0.062084879223039        0.337889843185905       -0.268303161298003
        0.302360540813125       -0.062091824092597        0.337885588581892       -0.268297475474834
        0.304779425139630       -0.062098768966063        0.337881333978810       -0.268291789651781
        0.307198309466135       -0.062106234033319        0.337877616539201       -0.268286437935332
        0.309617193792640       -0.062113699101346        0.337873899098225       -0.268281086217691
        0.312036078119145       -0.062121268121343        0.337871100119672       -0.268276498851213
        0.314454962445650       -0.062128837138845        0.337868301138607       -0.268271911483198
        0.316873846772155       -0.062136056469692        0.337866738527435       -0.268268472083633
        0.319292731098660       -0.062143275794885        0.337865175913847       -0.268265032683201
        0.321711615425165       -0.062149688974890        0.337865054736134       -0.268263029405256
        0.324130499751670       -0.062156102146372        0.337864933557163       -0.268261026127931
        0.326549384078175       -0.062161286967888        0.337866308113792       -0.268260612015855
        0.328968268404680       -0.062166471778484        0.337867682671003       -0.268260197906349
        0.331387152731185       -0.062170076119847        0.337870437391858       -0.268261367227334
        0.333806037057690       -0.062173680448525        0.337873192115324       -0.268262536552875
        0.336224921384195       -0.062175453180441        0.337877045826664       -0.268265121618352
        0.338643805710700       -0.062177225898651        0.337880899542385       -0.268267706690010
        0.341062690037205       -0.062177039713759        0.337885433960105       -0.268271396495577
        0.343481574363710       -0.062176853514969        0.337889968383399       -0.268275086308315
        0.345900458690215       -0.062174717451113        0.337894677660625       -0.268279464805874
        0.348319343016720       -0.062172581374074        0.337899386943905       -0.268283843310826
        0.350738227343225       -0.062168641968194        0.337903741470076       -0.268288441888247
        0.353157111669730       -0.062164702550725        0.337908096002109       -0.268293040472562
        0.355575995996235       -0.062159233795386        0.337911611074275       -0.268297396839396
        0.357994880322740       -0.062153765030811        0.337915126151581       -0.268301753212041
        0.360413764649245       -0.062147148433793        0.337917425100679       -0.268305467808226
        0.362832648975750       -0.062140531830469        0.337919724053882       -0.268309182408772
        0.365251533302255       -0.062133228753936        0.337920586123555       -0.268311963872333
        0.367670417628760       -0.062125925674286        0.337921448196183       -0.268314745338664
        0.370089301955265       -0.062118444659265        0.337920833840013       -0.268316438424019
        0.372508186281770       -0.062110963644201        0.337920219485706       -0.268318131510623
        0.374927070608275       -0.062103825579909        0.337918269373918       -0.268318723817657
        0.377345954934780       -0.062096687518174        0.337916319263089       -0.268319316124662
        0.379764839261285       -0.062090391328569        0.337913327546688       -0.268318923556046
        0.382183723587790       -0.062084095143337        0.337910335830604       -0.268318530986484
        0.384602607914295       -0.062079086222364        0.337906702358894       -0.268317365366381
        0.387021492240800       -0.062074077306614        0.337903068887169       -0.268316199744850
        0.389440376567305       -0.062070720357567        0.337899238391831       -0.268314524885639
        0.391859260893810       -0.062067363413583        0.337895407896430       -0.268312850024949
        0.394278145220315       -0.062065920760579        0.337891806069418       -0.268310934222327
        0.396697029546820       -0.062064478111587        0.337888204242533       -0.268309018418541
        0.399115913873325       -0.062065094056608        0.337885180827511       -0.268307091605726
        0.401534798199830       -0.062065710003876        0.337882157412963       -0.268305164792329
        0.403953682526335       -0.062068401465612        0.337879944892377       -0.268303387372119
        0.406372566852840       -0.062071092927353        0.337877732372700       -0.268301609952083
        0.408791451179345       -0.062075746432639        0.337876425867233       -0.268300057899301
        0.411210335505850       -0.062080399935442        0.337875119363130       -0.268298505847520
        0.413629219832355       -0.062086775004960        0.337874679521667       -0.268297173500056
        0.416048104158860       -0.062093150069430        0.337874239682030       -0.268295841154449
        0.418466988485365       -0.062100889072376        0.337874516333040       -0.268294659787176
        0.420885872811870       -0.062108628067743        0.337874792986339       -0.268293478422636
        0.423304757138375       -0.062117272622744        0.337875563867770       -0.268292345840689
        0.425723641464880       -0.062125917167752        0.337876334751975       -0.268291213262359
        0.428142525791385       -0.062134931051172        0.337877351344928       -0.268290027779787
        0.430561410117890       -0.062143944922348        0.337878367941194       -0.268288842301742
        0.432980294444395       -0.062152743150138        0.337879399685322       -0.268287533916816
        0.435399178770900       -0.062161541363646        0.337880431433369       -0.268286225537363
        0.437818063097405       -0.062169524624353        0.337881300488536       -0.268284777953550
        0.440236947423910       -0.062177507868971        0.337882169548290       -0.268283330376182
        0.442655831750415       -0.062184100842053        0.337882770571495       -0.268281789561338
        0.445074716076920       -0.062190693797527        0.337883371600006       -0.268280248753910
        0.447493600403425       -0.062195385182224        0.337883674251399       -0.268278716566637
        0.449912484729930       -0.062200076548148        0.337883976908814       -0.268277184387691
        0.452331369056435       -0.062202457979467        0.337884012341025       -0.268275798870414
        0.454750253382940       -0.062204839391248        0.337884047779875       -0.268274413362230
        0.457169137709445       -0.062204639970467        0.337883883512244       -0.268273320007595
        0.459588022035950       -0.062204440529831        0.337883719251634       -0.268272226662544
        0.462006906362455       -0.062201553574089        0.337883428984667       -0.268271546780816
        0.464425790688960       -0.062198666598656        0.337883138724727       -0.268270866908747
        0.466844675015465       -0.062193165503541        0.337882774410398       -0.268270669810507
        0.469263559341970       -0.062187664389390        0.337882410102601       -0.268270472721492
        0.471682443668475       -0.062179805227056        0.337881982829530       -0.268270757673909
