#           time (fs)    |     mu_x (e.angstrom)   |     mu_y (e.angstrom)   |     mu_z (e.angstrom)   |
        0.000000000000000       -0.062108386679946        0.337892490974665       -0.268298534966600
        0.002418884326505       -0.062114644857926        0.337865448423816       -0.268267103946324
        0.004837768653010       -0.062120903046863        0.337838405790814       -0.268235672903488
        0.007256652979515       -0.062126529802812        0.337814624983251       -0.268207344299382
        0.009675537306020       -0.062132156560441        0.337790844170267       -0.268179015690256
        0.012094421632525       -0.062136606263384        0.337773119614868       -0.268156478778277
        0.014513305959030       -0.062141055965528        0.337755395060168       -0.268133941866405
        0.016932190285535       -0.062143941332625        0.337745658952410       -0.268119122406142
        0.019351074612040       -0.062146826696402        0.337735922851467       -0.268104302951145
        0.021769958938545       -0.062147966955770        0.337734983524761       -0.268098128357261
        0.024188843265050       -0.062149107209810        0.337734044209631       -0.268091953772622
        0.026607727591555       -0.062148544858195        0.337741496723062       -0.268094267650393
        0.029026611918060       -0.062147982500061        0.337748949250757       -0.268096581539578
        0.031445496244565       -0.062145966752631        0.337763269281431       -0.268106217434968
        0.033864380571070       -0.062143950998309        0.337777589326930       -0.268115853342070
        0.036283264897575       -0.062140891439076        0.337796392101040       -0.268130852205072
        0.038702149224080       -0.062137831873244        0.337815194888719       -0.268145851078531
        0.041121033550585       -0.062134230545885        0.337835614948413       -0.268163784551601
        0.043539917877090       -0.062130629212656        0.337856035018992       -0.268181718032667
        0.045958802203595       -0.062127002656129        0.337875164377212       -0.268200063918133
        0.048377686530100       -0.062123376094782        0.337894293742486       -0.268218409808184
        0.050796570856605       -0.062120180096289        0.337909608328388       -0.268234919441140
        0.053215455183110       -0.062116984094293        0.337924922916691       -0.268251429074611
        0.055634339509615       -0.062114553025793        0.337934631219239       -0.268264429740215
        0.058053223836120       -0.062112121955312        0.337944339519327       -0.268277430402112
        0.060472108162625       -0.062110631681627        0.337947602057390       -0.268286018574419
        0.062890992489130       -0.062109141407524        0.337950864588929       -0.268294606739514
        0.065309876815635       -0.062108600444839        0.337947855534069       -0.268298707417981
        0.067728761142140       -0.062108059483052        0.337944846470594       -0.268302808087465
        0.070147645468645       -0.062108328125410        0.337936655392862       -0.268303098388734
        0.072566529795150       -0.062108596769406        0.337928464307253       -0.268303388681745
        0.074985414121655       -0.062109429164020        0.337916862006627       -0.268301106144843
        0.077404298448160       -0.062110261560211        0.337905259701784       -0.268298823603016
        0.079823182774665       -0.062111362017090        0.337892373071997       -0.268295497633977
        0.082242067101170       -0.062112462474642        0.337879486443788       -0.268292171665286
        0.084660951427675       -0.062113545256847        0.337867439926198       -0.268289327290120
        0.087079835754180       -0.062114628038169        0.337855393416695       -0.268286482921278
        0.089498720080685       -0.062115469803346        0.337845977023153       -0.268285367981084
        0.091917604407190       -0.062116311565807        0.337836560643418       -0.268284253052593
        0.094336488733695       -0.062116787469691        0.337830976763855       -0.268285633181218
        0.096755373060200       -0.062117263369088        0.337825392901974       -0.268287013325359
        0.099174257386705       -0.062117361209841        0.337824117932046       -0.268291065038199
        0.101593141713210       -0.062117459044672        0.337822842981432       -0.268295116768423
        0.104012026039715       -0.062117270074433        0.337825618370838       -0.268301430502029
        0.106430910366220       -0.062117081097295        0.337828393779050       -0.268307744253013
        0.108849794692725       -0.062116770464769        0.337834338363927       -0.268315429646081
        0.111268679019230       -0.062116459824865        0.337840282965241       -0.268323115054859
        0.113687563345735       -0.062116223256844        0.337848098420856       -0.268330983614401
        0.116106447672240       -0.062115986681430        0.337855913888957       -0.268338852186560
        0.118525331998745       -0.062116002324766        0.337864141180726       -0.268345640629933
        0.120944216325250       -0.062116017961153        0.337872368479709       -0.268352429081611
        0.123363100651755       -0.062116402911609        0.337879647430039       -0.268357021907261
        0.125781984978260       -0.062116787855950        0.337886926381466       -0.268361614736079
        0.128200869304765       -0.062117567737348        0.337892213476171       -0.268363227423553
        0.130619753631270       -0.062118347613753        0.337897500565910       -0.268364840108992
        0.133038637957775       -0.062119444904723        0.337900210865639       -0.268363133866696
        0.135457522284280       -0.062120542191935        0.337902921155590       -0.268361427618112
        0.137876406610785       -0.062121785358230        0.337902976279621       -0.268356540709763
        0.140295290937290       -0.062123028521884        0.337903031391469       -0.268351653792820
        0.142714175263795       -0.062124180092810        0.337900813774094       -0.268344150370539
        0.145133059590300       -0.062125331661934        0.337898596145164       -0.268336646939876
        0.147551943916805       -0.062126129914880        0.337894826675361       -0.268327398995266
        0.149970828243310       -0.062126928166484        0.337891057197432       -0.268318151044838
        0.152389712569815       -0.062127134676259        0.337886625909620       -0.268308179934274
        0.154808596896320       -0.062127341184833        0.337882194618918       -0.268298208821993
        0.157227481222825       -0.062126785564807        0.337877980243296       -0.268288518048891
        0.159646365549330       -0.062126229943533        0.337873765870491       -0.268278827278600
        0.162065249875835       -0.062124843779551        0.337870479022225       -0.268270257183618
        0.164484134202340       -0.062123457614221        0.337867192181787       -0.268261687095411
        0.166903018528845       -0.062121291698279        0.337865269410506       -0.268254815388341
        0.169321902855350       -0.062119125780926        0.337863346650702       -0.268247943690886
        0.171740787181855       -0.062116347859721        0.337862910337236       -0.268243044978769
        0.174159671508360       -0.062113569937057        0.337862474037381       -0.268238146277862
        0.176578555834865       -0.062110443698655        0.337863358869870       -0.268235211223506
        0.178997440161370       -0.062107317458714        0.337864243716699       -0.268232276180821
        0.181416324487875       -0.062104166733319        0.337866077116613       -0.268231079205395
        0.183835208814380       -0.062101016006190        0.337867910530267       -0.268229882241051
        0.186254093140885       -0.062098180567060        0.337870224525206       -0.268230078025078
        0.188672977467390       -0.062095345125839        0.337872538531983       -0.268230273818602
        0.191091861793895       -0.062093135634497        0.337874885967553       -0.268231498808214
        0.193510746120400       -0.062090926140504        0.337877233411871       -0.268232723804850
        0.195929630446905       -0.062089585524852        0.337879282706928       -0.268234680056949
        0.198348514773410       -0.062088244905748        0.337881332006879       -0.268236636313093
        0.200767399099915       -0.062087921900242        0.337882921313427       -0.268239140814411
        0.203186283426420       -0.062087598890194        0.337884510621091       -0.268241645316996
        0.205605167752925       -0.062088336955174        0.337885652616840       -0.268244636960437
        0.208024052079430       -0.062089075014195        0.337886794611004       -0.268247628603395
        0.210442936405935       -0.062090816904851        0.337887634893492       -0.268251135263073
        0.212861820732440       -0.062092558787812        0.337888475173549       -0.268254641922179
        0.215280705058945       -0.062095164243676        0.337889217797302       -0.268258719316647
        0.217699589385450       -0.062097769689882        0.337889960419790       -0.268262796712215
        0.220118473711955       -0.062101041592487        0.337890781295192       -0.268267457038004
        0.222537358038460       -0.062104313483440        0.337891602171972       -0.268272117367811
        0.224956242364965       -0.062108026761188        0.337892573364310       -0.268277267742207
        0.227375126691470       -0.062111740025535        0.337893544561141       -0.268282418123884
        0.229794011017975       -0.062115667726555        0.337894589579406       -0.268287826331685
        0.232212895344480       -0.062119595412937        0.337895634604749       -0.268293234549478
        0.234631779670985       -0.062123527628785        0.337896527261792       -0.268298533055114
        0.237050663997490       -0.062127459829466        0.337897419927316       -0.268303831572312
        0.239469548323995       -0.062131213222864        0.337897828955512       -0.268308561686612
        0.241888432650500       -0.062134966601386        0.337898237992280       -0.268313291812776
        0.244307316977005       -0.062138384702965        0.337897808589327       -0.268316980275896
        0.246726201303510       -0.062141802790769        0.337897379193930       -0.268320668750067
        0.249145085630015       -0.062144749458088        0.337895833459264       -0.268322920909150
        0.251563969956520       -0.062147696113452        0.337894287730359       -0.268325173077638
        0.253982854283025       -0.062150046115503        0.337891520572182       -0.268325762083258
        0.256401738609530       -0.062152396107980        0.337888753417457       -0.268326351096048
        0.258820622936035       -0.062154027379387        0.337884900206646       -0.268325282209276
        0.261239507262540       -0.062155658643934        0.337881046996699       -0.268324213327055
        0.263658391589045       -0.062156450226312        0.337876504202329       -0.268321746694322
        0.266077275915550       -0.062157241804593        0.337871961406293       -0.268319280063466
        0.268496160242055       -0.062157079973663        0.337867350747861       -0.268315903390483
        0.270915044568560       -0.062156918141130        0.337862740085822       -0.268312526717133
        0.273333928895065       -0.062155711033497        0.337858818530192       -0.268308879555585
        0.275752813221570       -0.062154503926178        0.337854896970210       -0.268305232392420
        0.278171697548075       -0.062152202600164        0.337852426776028       -0.268301994148905
        0.280590581874580       -0.062149901275536        0.337849956578372       -0.268298755903935
        0.283009466201085       -0.062146523086465        0.337849559059947       -0.268296518021882
        0.285428350527590       -0.062143144898879        0.337849161540535       -0.268294280139978
        0.287847234854095       -0.062138793805100        0.337851183229283       -0.268293427390361
        0.290266119180600       -0.062134442711931        0.337853204920587       -0.268292574643518
        0.292685003507105       -0.062129320965895        0.337857624144465       -0.268293200028608
        0.295103887833610       -0.062124199218769        0.337862043374601       -0.268293825419379
        0.297522772160115       -0.062118605932561        0.337868438871357       -0.268295697753079
        0.299941656486620       -0.062113012642975        0.337874834377339       -0.268297570094893
        0.302360540813125       -0.062107326803012        0.337882426482885       -0.268300163791434
        0.304779425139630       -0.062101640957046        0.337890018599340       -0.268302757497578
        0.307198309466135       -0.062096289233272        0.337897779854963       -0.268305342242175
        0.309617193792640       -0.062090937500806        0.337905541121756       -0.268307926996765
        0.312036078119145       -0.062086350136531        0.337912359454819       -0.268309703067538
        0.314454962445650       -0.062081762761016        0.337919177798081       -0.268311479147751
        0.316873846772155       -0.062078323370967        0.337924044457404       -0.268311734562799
        0.319292731098660       -0.062074883967471        0.337928911124978       -0.268311989985962
        0.321711615425165       -0.062072880702199        0.337931099542455       -0.268310250327192
        0.324130499751670       -0.062070877421739        0.337933287965451       -0.268308510674612
        0.326549384078175       -0.062070463320275        0.337932490006847       -0.268304652571849
        0.328968268404680       -0.062070049202406        0.337931692050437       -0.268300794472895
        0.331387152731185       -0.062071218526900        0.337928084852480       -0.268295099463351
        0.333806037057690       -0.062072387834262        0.337924477653177       -0.268289404455105
        0.336224921384195       -0.062074972892382        0.337918706314495       -0.268282540326402
        0.338643805710700       -0.062077557933047        0.337912934971374       -0.268275676196913
        0.341062690037205       -0.062081247718714        0.337906011603316       -0.268268606111516
        0.343481574363710       -0.062084937486860        0.337899088229050       -0.268261536024423
        0.345900458690215       -0.062089315952613        0.337892223448547       -0.268255369261373
        0.348319343016720       -0.062093694400951        0.337885358662160       -0.268249202497513
        0.350738227343225       -0.062098292937465        0.337879754561358       -0.268245011961636
        0.353157111669730       -0.062102891456781        0.337874150457353       -0.268240821427833
        0.355575995996235       -0.062107247778141        0.337870791890779       -0.268239459964419
        0.357994880322740       -0.062111604082624        0.337867433325640       -0.268238098507583
        0.360413764649245       -0.062115318634383        0.337866915422842       -0.268240047117787
        0.362832648975750       -0.062119033169717        0.337866397527093       -0.268241995739848
        0.365251533302255       -0.062121814595854        0.337868821327656       -0.268247271696454
        0.367670417628760       -0.062124596006146        0.337871245140654       -0.268252547669920
        0.370089301955265       -0.062126289066505        0.337876201160656       -0.268260690124853
        0.372508186281770       -0.062127982111680        0.337881157197284       -0.268268832600562
        0.374927070608275       -0.062128574410134        0.337887800745303       -0.268278969417010
        0.377345954934780       -0.062129166694069        0.337894444312412       -0.268289106256578
        0.379764839261285       -0.062128774135131        0.337901649429980       -0.268300091034935
        0.382183723587790       -0.062128381562268        0.337908854567304       -0.268311075837130
        0.384602607914295       -0.062127215969442        0.337915418751654       -0.268321671191621
        0.387021492240800       -0.062126050363210        0.337921982954797       -0.268332266569149
        0.389440376567305       -0.062124375545964        0.337926845135550       -0.268341341095700
        0.391859260893810       -0.062122700715752        0.337931707332730       -0.268350415643155
        0.394278145220315       -0.062120784965315        0.337934138810962       -0.268357119366470
        0.396697029546820       -0.062118869202285        0.337936570302122       -0.268363823107442
        0.399115913873325       -0.062116942446807        0.337936303128559       -0.268367710068728
        0.401534798199830       -0.062115015678962        0.337936035963700       -0.268371597043661
        0.403953682526335       -0.062113238316491        0.337933304723484       -0.268372673427753
        0.406372566852840       -0.062111460941571        0.337930573487700       -0.268373749821333
        0.408791451179345       -0.062109908943037        0.337926062582391       -0.268372439848041
        0.411210335505850       -0.062108356931466        0.337921551678075       -0.268371129880721
        0.413629219832355       -0.062107024632029        0.337916257958866       -0.268368167033221
        0.416048104158860       -0.062105692318345        0.337910964238901       -0.268365204189587
        0.418466988485365       -0.062104510991408        0.337906000910195       -0.268361469343365
        0.420885872811870       -0.062103329648418        0.337901037581130       -0.268357734500716
        0.423304757138375       -0.062102197098999        0.337897416603512       -0.268354072497045
        0.425723641464880       -0.062101064531343        0.337893795627914       -0.268350410498332
        0.428142525791385       -0.062099879074811        0.337892230210102       -0.268347460755722
        0.430561410117890       -0.062098693597834        0.337890664797939       -0.268344511020514
        0.432980294444395       -0.062097385235161        0.337891430073459       -0.268342585077681
        0.435399178770900       -0.062096076850164        0.337892195358515       -0.268340659144903
        0.437818063097405       -0.062094629288410        0.337895074564426       -0.268339689030528
        0.440236947423910       -0.062093181703069        0.337897953783189       -0.268338718928383
        0.442655831750415       -0.062091640913674        0.337902281151499       -0.268338286605906
        0.445074716076920       -0.062090100100139        0.337906608534968       -0.268337854297014
        0.447493600403425       -0.062088567944117        0.337911401660887       -0.268337296685451
        0.449912484729930       -0.062087035764151        0.337916194803218       -0.268336739088002
        0.452331369056435       -0.062085650284217        0.337920351938267       -0.268335308288762
        0.454750253382940       -0.062084264781254        0.337924509090019       -0.268333877503437
        0.457169137709445       -0.062083171467890        0.337927033923208       -0.268330924714250
        0.459588022035950       -0.062082078133171        0.337929558772446       -0.268327971938086
        0.462006906362455       -0.062081398292549        0.337929769317225       -0.268323118284507
        0.464425790688960       -0.062080718433030        0.337929979876358       -0.268318264642275
        0.466844675015465       -0.062080521370873        0.337927660305883       -0.268311523892015
        0.469263559341970       -0.062080324293050        0.337925340747009       -0.268304783150628
        0.471682443668475       -0.062080609272225        0.337920805122536       -0.268296609776856
