#           time (fs)    |     mu_x (e.angstrom)   |     mu_y (e.angstrom)   |     mu_z (e.angstrom)   |
        0.000000000000000        0.115414175781718        0.375677641606869       -0.041878053174009
        0.002418884326505        0.115420203114321        0.375803166128371       -0.041908142361353
        0.004837768653010        0.115426230514533        0.375928690549663       -0.041938231374973
        0.007256652979515        0.115431480726700        0.376042282748096       -0.041964857295151
        0.009675537306020        0.115436730942825        0.376155874923401       -0.041991483207619
        0.012094421632525        0.115440539578844        0.376247027585736       -0.042011652825887
        0.014513305959030        0.115444348216940        0.376338180236109       -0.042031822447763
        0.016932190285535        0.115446258686030        0.376399043180090       -0.042043413013160
        0.019351074612040        0.115448169154406        0.376459906123638       -0.042055003593838
        0.021769958938545        0.115447995042584        0.376486161292262       -0.042057035532850
        0.024188843265050        0.115447820926786        0.376512416469857       -0.042059067496696
        0.026607727591555        0.115445666284598        0.376503683784646       -0.042051810850713
        0.029026611918060        0.115443511635103        0.376494951114624       -0.042044554235768
        0.031445496244565        0.115439746633867        0.376454681197653       -0.042029456095316
        0.033864380571070        0.115435981622145        0.376414411299125       -0.042014357988780
        0.036283264897575        0.115431178290802        0.376349294361765       -0.041993805618949
        0.038702149224080        0.115426374946137        0.376284177443831       -0.041973253283362
        0.041121033550585        0.115421214079798        0.376203164866282       -0.041950212231339
        0.043539917877090        0.115416053197541        0.376122152307264       -0.041927171212214
        0.045958802203595        0.115411217965616        0.376035238579419       -0.041904755590790
        0.048377686530100        0.115406382715436        0.375948324867104       -0.041882339999690
        0.050796570856605        0.115402456277580        0.375865265334629       -0.041863380625895
        0.053215455183110        0.115398529819519        0.375782205812460       -0.041844421278723
        0.055634339509615        0.115395913126460        0.375711346645964       -0.041831095296212
        0.058053223836120        0.115393296411988        0.375640487482991       -0.041817769335614
        0.060472108162625        0.115392158578672        0.375587859345364       -0.041811343001508
        0.062890992489130        0.115391020723892        0.375535231204803       -0.041804916684171
        0.065309876815635        0.115391288613501        0.375504012152194       -0.041805633407842
        0.067728761142140        0.115391556483132        0.375472793093134       -0.041806350143760
        0.070147645468645        0.115392943457684        0.375463187324446       -0.041813472067755
        0.072566529795150        0.115394330415363        0.375453581550737       -0.041820594001220
        0.074985414121655        0.115396397750096        0.375463098412252       -0.041832581432454
        0.077404298448160        0.115398465072305        0.375472615275477       -0.041844568872805
        0.079823182774665        0.115400704389900        0.375496677153966       -0.041859361604017
        0.082242067101170        0.115402943699851        0.375520739044426       -0.041874154346225
        0.084660951427675        0.115404865792051        0.375553505607272       -0.041889505474636
        0.087079835754180        0.115406787881110        0.375586272192732       -0.041904856617230
        0.089498720080685        0.115408002887601        0.375621547206416       -0.041918664713316
        0.091917604407190        0.115409217894377        0.375656822250625       -0.041932472826833
        0.094336488733695        0.115409493978479        0.375688909739131       -0.041943062532355
        0.096755373060200        0.115409770064830        0.375720997261548       -0.041953652257646
        0.099174257386705        0.115409061991840        0.375745394235173       -0.041959965373125
        0.101593141713210        0.115408353921521        0.375769791241525       -0.041966278509392
        0.104012026039715        0.115406798489453        0.375783639719800       -0.041967954892942
        0.106430910366220        0.115405243059075        0.375797488226186       -0.041969631297080
        0.108849794692725        0.115403124138291        0.375799752816853       -0.041966978204639
        0.111268679019230        0.115401005217075        0.375802017428897       -0.041964325131590
        0.113687563345735        0.115398696202842        0.375793398591590       -0.041958191587599
        0.116106447672240        0.115396387185140        0.375784779767667       -0.041952058060981
        0.118525331998745        0.115394282105010        0.375767410003633       -0.041943644506447
        0.120944216325250        0.115392177017638        0.375750040244058       -0.041935230966500
        0.123363100651755        0.115390622833695        0.375727035535523       -0.041925871775122
        0.125781984978260        0.115389068638351        0.375704030822047       -0.041916512594881
        0.128200869304765        0.115388310314594        0.375678980000820       -0.041907469310520
        0.130619753631270        0.115387551975299        0.375653929166040       -0.041898426033716
        0.133038637957775        0.115387698924521        0.375630399658786       -0.041890722909825
        0.135457522284280        0.115387845854765        0.375606870132139       -0.041883019790583
        0.137876406610785        0.115388864065004        0.375587992405003       -0.041877342085143
        0.140295290937290        0.115389882254030        0.375569114657365       -0.041871664383014
        0.142714175263795        0.115391611564343        0.375557284186397       -0.041868326323944
        0.145133059590300        0.115393340852764        0.375545453699460       -0.041864988268896
        0.147551943916805        0.115395532402060        0.375542163756044       -0.041863964358104
        0.149970828243310        0.115397723930262        0.375538873805928       -0.041862940453895
        0.152389712569815        0.115400089526647        0.375544669810765       -0.041863943267785
        0.154808596896320        0.115402455103866        0.375550465820441       -0.041864946091747
        0.157227481222825        0.115404718691462        0.375564996287305       -0.041867527698855
        0.159646365549330        0.115406982262475        0.375579526769779       -0.041870109319300
        0.162065249875835        0.115408923992831        0.375601658849709       -0.041873762613519
        0.164484134202340        0.115410865709350        0.375623790952856       -0.041877415923193
        0.166903018528845        0.115412351188732        0.375651760124355       -0.041881656224582
        0.169321902855350        0.115413836656851        0.375679729322549       -0.041885896542076
        0.171740787181855        0.115414827257240        0.375711300811605       -0.041890311458696
        0.174159671508360        0.115415817848659        0.375742872327004       -0.041894726390811
        0.176578555834865        0.115416361847035        0.375775503079709       -0.041898991235525
        0.178997440161370        0.115416905838255        0.375808133855479       -0.041903256094407
        0.181416324487875        0.115417113819121        0.375839134602904       -0.041907120966888
        0.183835208814380        0.115417321794022        0.375870135367940       -0.041910985851976
        0.186254093140885        0.115417332528840        0.375896839260724       -0.041914246915703
        0.188672977467390        0.115417343258043        0.375923543163967       -0.041917507990549
        0.191091861793895        0.115417287675575        0.375943488573075       -0.041919978205563
        0.193510746120400        0.115417232086894        0.375963433984323       -0.041922448430535
        0.195929630446905        0.115417202777580        0.375974563994845       -0.041923941618226
        0.198348514773410        0.115417173460540        0.375985693999217       -0.041925434815409
        0.200767399099915        0.115417205533606        0.375986565236664       -0.041925771932937
        0.203186283426420        0.115417237596779        0.375987436461655       -0.041926109060781
        0.205605167752925        0.115417304028953        0.375977417965429       -0.041925148248835
        0.208024052079430        0.115417370448734        0.375967399454579       -0.041924187449978
        0.210442936405935        0.115417391914216        0.375946831891964       -0.041921871588796
        0.212861820732440        0.115417413364851        0.375926264318028       -0.041919555745719
        0.215280705058945        0.115417279570807        0.375896544377235       -0.041915964817859
        0.217699589385450        0.115417145759674        0.375866824433605       -0.041912373915038
        0.220118473711955        0.115416743116575        0.375830381296098       -0.041907766028664
        0.222537358038460        0.115416340454261        0.375793938167365       -0.041903158175238
        0.224956242364965        0.115415579892602        0.375754079511015       -0.041897983592096
        0.227375126691470        0.115414819309674        0.375714220875221       -0.041892809049396
        0.229794011017975        0.115413658366552        0.375674843964595       -0.041887686063718
        0.232212895344480        0.115412497400148        0.375635467083771       -0.041882563124281
        0.234631779670985        0.115410952214209        0.375600653381406       -0.041878212335274
        0.237050663997490        0.115409407003196        0.375565839714051       -0.041873861595788
        0.239469548323995        0.115407552208141        0.375539374942686       -0.041871004449093
        0.241888432650500        0.115405697386777        0.375512910207367       -0.041868147352400
        0.244307316977005        0.115403654554605        0.375497791166223       -0.041867383814233
        0.246726201303510        0.115401611695768        0.375482672158784       -0.041866620323942
        0.249145085630015        0.115399529377378        0.375480672466120       -0.041868307194743
        0.251563969956520        0.115397447032973        0.375478672802334       -0.041869994109034
        0.253982854283025        0.115395477075165        0.375490039010640       -0.041874148181443
        0.256401738609530        0.115393507092964        0.375501405241075       -0.041878302291086
        0.258820622936035        0.115391782453772        0.375524741361195       -0.041884550455091
        0.261239507262540        0.115390057792538        0.375548077495221       -0.041890798648720
        0.263658391589045        0.115388676445386        0.375580451137885       -0.041898390240012
        0.266077275915550        0.115387295078910        0.375612824785524       -0.041905981852762
        0.268496160242055        0.115386312962146        0.375650095406273       -0.041913868086939
        0.270915044568560        0.115385330828989        0.375687366023805       -0.041921754334921
        0.273333928895065        0.115384764544557        0.375724700382613       -0.041928727418442
        0.275752813221570        0.115384198246788        0.375762034732614       -0.041935700509872
        0.278171697548075        0.115384035856405        0.375794542713043       -0.041940573263952
        0.280590581874580        0.115383873455855        0.375827050683216       -0.041945446022796
        0.283009466201085        0.115384089799801        0.375850451847143       -0.041947243906338
        0.285428350527590        0.115384306136783        0.375873853003912       -0.041949041794644
        0.287847234854095        0.115384878048737        0.375885075118202       -0.041947174933178
        0.290266119180600        0.115385449956789        0.375896297231958       -0.041945308079301
        0.292685003507105        0.115386366816013        0.375893914698816       -0.041939692347520
        0.295103887833610        0.115387283673913        0.375891532173230       -0.041934076628124
        0.297522772160115        0.115388549924588        0.375875974322223       -0.041925179994911
        0.299941656486620        0.115389816175706        0.375860416486165       -0.041916283379857
        0.302360540813125        0.115391444503489        0.375833909832323       -0.041905085529786
        0.304779425139630        0.115393072832441        0.375807403198655       -0.041893887703787
        0.307198309466135        0.115395069169596        0.375773652619288       -0.041881755414301
        0.309617193792640        0.115397065507467        0.375739902062704       -0.041869623154470
        0.312036078119145        0.115399409381356        0.375703556682933       -0.041858118495174
        0.314454962445650        0.115401753254538        0.375667211326191       -0.041846613870450
        0.316873846772155        0.115404378650986        0.375633194888515       -0.041837264367098
        0.319292731098660        0.115407004044532        0.375599178472107       -0.041827914902282
        0.321711615425165        0.115409786503996        0.375571985336680       -0.041821982136112
        0.324130499751670        0.115412568957898        0.375544792218915       -0.041816049411150
        0.326549384078175        0.115415323862068        0.375527855244960       -0.041814333682966
        0.328968268404680        0.115418078757902        0.375510918283340       -0.041812617997107
        0.331387152731185        0.115420573770530        0.375506142795079       -0.041815331349408
        0.333806037057690        0.115423068772346        0.375501367312705       -0.041818044743609
        0.336224921384195        0.115425050519681        0.375508898210608       -0.041824773646372
        0.338643805710700        0.115427032254384        0.375516429108265       -0.041831502589623
        0.341062690037205        0.115428264122707        0.375534680585756       -0.041841266831625
        0.343481574363710        0.115429495977636        0.375552932059207       -0.041851031112548
        0.345900458690215        0.115429801031494        0.375578867725014       -0.041862429471276
        0.348319343016720        0.115430106072437        0.375604803387225       -0.041873827868113
        0.350738227343225        0.115429407191545        0.375634415899468       -0.041885246762440
        0.353157111669730        0.115428708299432        0.375664028413607       -0.041896665695296
        0.355575995996235        0.115427057171354        0.375692938411397       -0.041906516780833
        0.357994880322740        0.115425406034678        0.375721848420907       -0.041916367906451
        0.360413764649245        0.115422993836832        0.375745927262284       -0.041923316239281
        0.362832648975750        0.115420581633398        0.375770006127512       -0.041930264614328
        0.365251533302255        0.115417726982609        0.375785927839777       -0.041933411302896
        0.367670417628760        0.115414872329093        0.375801849587978       -0.041936558035769
        0.370089301955265        0.115411985945657        0.375807493773014       -0.041935549746648
        0.372508186281770        0.115409099561768        0.375813138004156       -0.041934541503464
        0.374927070608275        0.115406629413971        0.375807793807364       -0.041929592205044
        0.377345954934780        0.115404159267189        0.375802449664146       -0.041924642953671
        0.379764839261285        0.115402523928815        0.375786805906508       -0.041916468485744
        0.382183723587790        0.115400888592043        0.375771162207236       -0.041908294065648
        0.384602607914295        0.115400409376816        0.375747104020400       -0.041897974763525
        0.387021492240800        0.115399930162922        0.375723045894243       -0.041887655509816
        0.389440376567305        0.115400773685689        0.375693307528143       -0.041876453584186
        0.391859260893810        0.115401617208734        0.375663569222501       -0.041865251707260
        0.394278145220315        0.115403759050051        0.375631311287082       -0.041854416407027
        0.396697029546820        0.115405900889756        0.375599053409066       -0.041843581155380
        0.399115913873325        0.115409118064917        0.375567438017258       -0.041834174923980
        0.401534798199830        0.115412335235820        0.375535822676987       -0.041824768740591
        0.403953682526335        0.115416230625798        0.375507651723427       -0.041817541775744
        0.406372566852840        0.115420126008332        0.375479480813522       -0.041810314858303
        0.408791451179345        0.115424182542104        0.375456943417234       -0.041805644971800
        0.411210335505850        0.115428239065055        0.375434406056355       -0.041800975132742
        0.413629219832355        0.115431896181318        0.375418955438834       -0.041798876702647
        0.416048104158860        0.115435553283638        0.375403504850047       -0.041796778321424
        0.418466988485365        0.115438293995684        0.375395858075778       -0.041796971000417
        0.420885872811870        0.115441034691320        0.375388211326406       -0.041797163731335
        0.423304757138375        0.115442469228059        0.375388442802568       -0.041799180930299
        0.425723641464880        0.115443903746822        0.375388674302665       -0.041801198185462
        0.428142525791385        0.115443835738453        0.375396359996254       -0.041804509166784
        0.430561410117890        0.115443767711468        0.375404045714515       -0.041807820208847
        0.432980294444395        0.115442231316023        0.375418412029315       -0.041811938966879
        0.435399178770900        0.115440694902132        0.375432778369577       -0.041816057789332
        0.437818063097405        0.115437955784183        0.375452817496782       -0.041820616728926
        0.440236947423910        0.115435216648532        0.375472856649094       -0.041825175735032
        0.442655831750415        0.115431735595500        0.375497386621275       -0.041829951362468
        0.445074716076920        0.115428254525978        0.375521916616857       -0.041834727056711
        0.447493600403425        0.115424618732214        0.375549585129188       -0.041839616492493
        0.449912484729930        0.115420982923578        0.375577253662446       -0.041844505993826
        0.452331369056435        0.115417815509004        0.375606504948973       -0.041849464665441
        0.454750253382940        0.115414648081587        0.375635756253900       -0.041854423400124
        0.457169137709445        0.115412510263328        0.375664795054051       -0.041859383359604
        0.459588022035950        0.115410372434680        0.375693833870214       -0.041864343378536
        0.462006906362455        0.115409674237603        0.375720626118634       -0.041869136401698
        0.464425790688960        0.115408976032964        0.375747418380408       -0.041873929479400
        0.466844675015465        0.115409910215739        0.375769763018757       -0.041878238415874
        0.469263559341970        0.115410844394055        0.375792107667095       -0.041882547400646
        0.471682443668475        0.115413354553518        0.375807798612395       -0.041885903228462
