#           time (fs)    |     mu_x (e.angstrom)   |     mu_y (e.angstrom)   |     mu_z (e.angstrom)   |
        0.000000000000000       -0.042283997138404        0.366198240842968       -0.131886026074585
        0.002418884326505       -0.042340214558489        0.366370527110118       -0.131870563778440
        0.004837768653010       -0.042396431837977        0.366542813316155       -0.131855101544762
        0.007256652979515       -0.042446921680580        0.366699382234399       -0.131840080469334
        0.009675537306020       -0.042497411529420        0.366855951182204       -0.131825059400311
        0.012094421632525       -0.042537143351534        0.366982876068187       -0.131810950964243
        0.014513305959030       -0.042576875188007        0.367109800986512       -0.131796842533090
        0.016932190285535       -0.042602118543924        0.367196504841183       -0.131784166685904
        0.019351074612040       -0.042627361921484        0.367283208727674       -0.131771490841220
        0.021769958938545       -0.042636116214722        0.367323593751503       -0.131760812476061
        0.024188843265050       -0.042644870534103        0.367363978801868       -0.131750134110492
        0.026607727591555       -0.042637066122753        0.367356987816525       -0.131742033051932
        0.029026611918060       -0.042629261738530        0.367349996848000       -0.131733931989840
        0.031445496244565       -0.042606710008913        0.367299547518700       -0.131728947671546
        0.033864380571070       -0.042584158304420        0.367249098193783       -0.131723963346530
        0.036283264897575       -0.042550263554739        0.367163416613104       -0.131722521372326
        0.038702149224080       -0.042516368826499        0.367077735023920       -0.131721079388214
        0.041121033550585       -0.042475647442713        0.366968195097387       -0.131723412079629
        0.043539917877090       -0.042434926076247        0.366858655150696       -0.131725744757923
        0.045958802203595       -0.042392403713849        0.366738292748302       -0.131731820595359
        0.048377686530100       -0.042349881364949        0.366617930316196       -0.131737896416385
        0.050796570856605       -0.042310453140738        0.366499837767933       -0.131747373365161
        0.053215455183110       -0.042271024926742        0.366381745182912       -0.131756850294357
        0.055634339509615       -0.042238865214817        0.366277558021105       -0.131769065245787
        0.058053223836120       -0.042206705510460        0.366173370818744       -0.131781280175054
        0.060472108162625       -0.042184803070494        0.366092035059845       -0.131795281520701
        0.062890992489130       -0.042162900636443        0.366010699261305       -0.131809282842802
        0.065309876815635       -0.042152773619911        0.365957658831176       -0.131823906387031
        0.067728761142140       -0.042142646609335        0.365904618368805       -0.131838529908039
        0.070147645468645       -0.042144264122282        0.365881496930793       -0.131852511064980
        0.072566529795150       -0.042145881643530        0.365858375475244       -0.131866492200864
        0.074985414121655       -0.042157788476371        0.365863155422282       -0.131878600977588
        0.077404298448160       -0.042169695322288        0.365867935372649       -0.131890709736941
        0.079823182774665       -0.042189308778647        0.365895569927818       -0.131899890514066
        0.082242067101170       -0.042208922254490        0.365923204509933       -0.131909071278350
        0.084660951427675       -0.042232948680201        0.365966546181997       -0.131914567683541
        0.087079835754180       -0.042256975132006        0.366009887902676       -0.131920064080350
        0.089498720080685       -0.042281881497044        0.366060784602046       -0.131921510661078
        0.091917604407190       -0.042306787893352        0.366111681365367       -0.131922957237112
        0.094336488733695       -0.042329261756854        0.366162083266718       -0.131920424003166
        0.096755373060200       -0.042351735654168        0.366212485238387       -0.131917890767062
        0.099174257386705       -0.042369074519392        0.366255420058942       -0.131911873315500
        0.101593141713210       -0.042386413417899        0.366298354946888       -0.131905855863095
        0.104012026039715       -0.042396799862896        0.366328662331427       -0.131897211661253
        0.106430910366220       -0.042407186337828        0.366358969772588       -0.131888567458954
        0.108849794692725       -0.042409825354435        0.366373730115635       -0.131878406688894
        0.111268679019230       -0.042412464395476        0.366388490498992       -0.131868245917908
        0.113687563345735       -0.042407580590954        0.366387131837854       -0.131857791830740
        0.116106447672240       -0.042402696803869        0.366385773197225       -0.131847337741534
        0.118525331998745       -0.042391408176831        0.366369884100969       -0.131837775714377
        0.120944216325250       -0.042380119559390        0.366353995003837       -0.131828213683549
        0.123363100651755       -0.042364218814554        0.366326905523137       -0.131820549480417
        0.125781984978260       -0.042348318071338        0.366299816020624       -0.131812885271714
        0.128200869304765       -0.042330000317642        0.366266029015218       -0.131807831240542
        0.130619753631270       -0.042311682558530        0.366232241970204       -0.131802777201967
        0.133038637957775       -0.042293259410924        0.366196802542998       -0.131800680647206
        0.135457522284280       -0.042274836253036        0.366161363064702       -0.131798584083756
        0.137876406610785       -0.042258471653047        0.366129246069246       -0.131799405619264
        0.140295290937290       -0.042242107041174        0.366097129020220       -0.131800227145797
        0.142714175263795       -0.042229601232274        0.366072707331643       -0.131803569519275
        0.145133059590300       -0.042217095413651        0.366048285596973       -0.131806911884712
        0.147551943916805       -0.042209732627985        0.366034919765166       -0.131812092730871
        0.149970828243310       -0.042202369838095        0.366021553903392       -0.131817273570959
        0.152389712569815       -0.042200834550593        0.366021321681426       -0.131823429853326
        0.154808596896320       -0.042199299266376        0.366021089450752       -0.131829586132260
        0.157227481222825       -0.042203657121219        0.366034655335334       -0.131835794462287
        0.159646365549330       -0.042208014987175        0.366048221233198       -0.131842002791648
        0.162065249875835       -0.042217748766195        0.366074833830224       -0.131847398767740
        0.164484134202340       -0.042227482562907        0.366101446459376       -0.131852794745622
        0.166903018528845       -0.042241571086488        0.366139045636312       -0.131856675909055
        0.169321902855350       -0.042255659632202        0.366176644858623       -0.131860557076114
        0.171740787181855       -0.042272687739175        0.366222060050440       -0.131862457610553
        0.174159671508360       -0.042289715870307        0.366267475294329       -0.131864358149845
        0.176578555834865       -0.042308005548661        0.366316698634593       -0.131864088337179
        0.178997440161370       -0.042326295250996        0.366365922027166       -0.131863818529945
        0.181416324487875       -0.042344050302910        0.366414442425896       -0.131861467345142
        0.183835208814380       -0.042361805376792        0.366462962871116       -0.131859116165590
        0.186254093140885       -0.042377263543467        0.366506147390542       -0.131855020381080
        0.188672977467390       -0.042392721728641        0.366549331945060       -0.131850924600959
        0.191091861793895       -0.042404308244978        0.366582837513472       -0.131845611672061
        0.193510746120400       -0.042415894775474        0.366616343101222       -0.131840298745908
        0.195929630446905       -0.042422369752668        0.366636534862380       -0.131834413109954
        0.198348514773410       -0.042428844739604        0.366656726624857       -0.131828527474509
        0.200767399099915       -0.042429434100303        0.366661070592157       -0.131822750590244
        0.203186283426420       -0.042430023467355        0.366665414543750       -0.131816973704073
        0.205605167752925       -0.042424520403632        0.366652804358676       -0.131811947345769
        0.208024052079430       -0.042419017345080        0.366640194145353       -0.131806920983312
        0.210442936405935       -0.042407839694903        0.366611167720739       -0.131803181387281
        0.212861820732440       -0.042396662051690        0.366582141262371       -0.131799441785440
        0.215280705058945       -0.042380851765861        0.366538945677177       -0.131797369750982
        0.217699589385450       -0.042365041491768        0.366495750060435       -0.131795297709709
        0.220118473711955       -0.042346196244993        0.366442223915571       -0.131795087212168
        0.222537358038460       -0.042327351016976        0.366388697747681       -0.131794876707224
        0.224956242364965       -0.042307485090316        0.366329959274907       -0.131796522418409
        0.227375126691470       -0.042287619190329        0.366271220791080       -0.131798168121770
        0.229794011017975       -0.042268960328617        0.366213175418824       -0.131801470703047
        0.232212895344480       -0.042250301500987        0.366155130048035       -0.131804773275924
        0.234631779670985       -0.042235041122126        0.366103839245885       -0.131809360452962
        0.237050663997490       -0.042219780783193        0.366052548456185       -0.131813947620886
        0.239469548323995       -0.042209804788951        0.366013527731564       -0.131819308726635
        0.241888432650500       -0.042199828838311        0.365974507027935       -0.131824669822602
        0.244307316977005       -0.042196463311535        0.365952039881090       -0.131830201437188
        0.246726201303510       -0.042193097829602        0.365929572761113       -0.131835733041708
        0.249145085630015       -0.042196906336585        0.365926134869998       -0.131840793270015
        0.251563969956520       -0.042200714887157        0.365922697008881       -0.131845853488615
        0.253982854283025       -0.042211380834234        0.365938578205048       -0.131849822060421
        0.256401738609530       -0.042222046821188        0.365954459431271       -0.131853790623612
        0.258820622936035       -0.042238365187620        0.365987649742615       -0.131856131278983
        0.261239507262540       -0.042254683587993        0.366020840080846       -0.131858471927331
        0.263658391589045       -0.042274672289097        0.366067212445066       -0.131858792539877
        0.266077275915550       -0.042294661016615        0.366113584830029       -0.131859113147579
        0.268496160242055       -0.042315785046082        0.366167365591197       -0.131857217990537
        0.270915044568560       -0.042336909093985        0.366221146365382       -0.131855322831059
        0.273333928895065       -0.042356393071545        0.366275621641900       -0.131851250666833
        0.275752813221570       -0.042375877060400        0.366330096924052       -0.131847178502938
        0.278171697548075       -0.042391066773338        0.366378465352054       -0.131841220175832
        0.280590581874580       -0.042406256492491        0.366426833780495       -0.131835261852137
        0.283009466201085       -0.042414980149629        0.366463090456140       -0.131827952097561
        0.285428350527590       -0.042423703810660        0.366499347130081       -0.131820642349673
        0.287847234854095       -0.042424580990564        0.366519074574061       -0.131812722747127
        0.290266119180600       -0.042425458174759        0.366538802016771       -0.131804803154479
        0.292685003507105       -0.042418109707648        0.366539753846530       -0.131797156445573
        0.295103887833610       -0.042410761247398        0.366540705676557       -0.131789509749366
        0.297522772160115       -0.042395886075374        0.366523096499811       -0.131783069754980
        0.299941656486620       -0.042381010914206        0.366505487324462       -0.131776629775191
        0.302360540813125       -0.042360314589901        0.366471944237789       -0.131772275292072
        0.304779425139630       -0.042339618281197        0.366438401152319       -0.131767920824394
        0.307198309466135       -0.042315599415874        0.366393581776868       -0.131766365443734
        0.309617193792640       -0.042291580571279        0.366348762401184       -0.131764810078150
        0.312036078119145       -0.042267202858693        0.366298693843597       -0.131766502117797
        0.314454962445650       -0.042242825171994        0.366248625283680       -0.131768194171075
        0.316873846772155       -0.042221120182499        0.366199859890750       -0.131773241264578
        0.319292731098660       -0.042199415223820        0.366151094493331       -0.131778288369298
        0.321711615425165       -0.042183072113846        0.366109805118046       -0.131786419385278
        0.324130499751670       -0.042166729038880        0.366068515736216       -0.131794550409368
        0.326549384078175       -0.042157729814687        0.366039661158116       -0.131805123321914
        0.328968268404680       -0.042148730628593        0.366010806571464       -0.131815696239047
        0.331387152731185       -0.042148083161499        0.365997485525474       -0.131827754758066
        0.333806037057690       -0.042147435734385        0.365984164469337       -0.131839813278113
        0.336224921384195       -0.042155042318032        0.365987246547999       -0.131852188248788
        0.338643805710700       -0.042162648942619        0.365990328616367       -0.131864563217336
        0.341062690037205       -0.042177328079325        0.366008407167433       -0.131876008019768
        0.343481574363710       -0.042192007257634        0.366026485711031       -0.131887452817893
        0.345900458690215       -0.042211663747135        0.366056148859573       -0.131896796331472
        0.348319343016720       -0.042231320279279        0.366085812007762       -0.131906139839948
        0.350738227343225       -0.042253237127697        0.366122181022492       -0.131912436963708
        0.353157111669730       -0.042275154020423        0.366158550048425       -0.131918734083068
        0.355575995996235       -0.042296362544505        0.366195996849725       -0.131921393025716
        0.357994880322740       -0.042317571114933        0.366233443676724       -0.131924051966050
        0.360413764649245       -0.042335245468889        0.366266376979224       -0.131922919820942
        0.362832648975750       -0.042352919870990        0.366299310322276       -0.131921787676419
        0.365251533302255       -0.042364740465166        0.366322915662426       -0.131917180971120
        0.367670417628760       -0.042376561108383        0.366346521055479       -0.131912574269473
        0.370089301955265       -0.042380998020394        0.366357353607566       -0.131905248547818
        0.372508186281770       -0.042385434981152        0.366368186220439       -0.131897922832448
        0.374927070608275       -0.042381916123796        0.366364543712725       -0.131888983828522
        0.377345954934780       -0.042378397313792        0.366360901268544       -0.131880044832835
        0.379764839261285       -0.042367344374552        0.366342942010659       -0.131870812153889
        0.382183723587790       -0.042356291480571        0.366324982814472       -0.131861579484184
        0.384602607914295       -0.042339026400981        0.366294594098879       -0.131853420644076
        0.387021492240800       -0.042321761364309        0.366264205439559       -0.131845261813151
        0.389440376567305       -0.042300304205673        0.366224663601418       -0.131839418863527
        0.391859260893810       -0.042278847087644        0.366185121811396       -0.131833575922039
        0.394278145220315       -0.042255639803614        0.366140611398754       -0.131831008110003
        0.396697029546820       -0.042232432558085        0.366096101024082       -0.131828440303895
        0.399115913873325       -0.042210030627023        0.366051173318122       -0.131829703938691
        0.401534798199830       -0.042187628732906        0.366006245638872       -0.131830967576226
        0.403953682526335       -0.042168403115477        0.365965295262783       -0.131836148957363
        0.406372566852840       -0.042149177534612        0.365924344902623       -0.131841330337195
        0.408791451179345       -0.042135063545902        0.365891169192172       -0.131850040000654
        0.411210335505850       -0.042120949595332        0.365857993489486       -0.131858749658299
        0.413629219832355       -0.042113268585822        0.365835476540556       -0.131870177517452
        0.416048104158860       -0.042105587618623        0.365812959595914       -0.131881605366271
        0.418466988485365       -0.042104954105748        0.365802896614580       -0.131894627888240
        0.420885872811870       -0.042104320642009        0.365792833639769       -0.131907650395750
        0.423304757138375       -0.042110634217729        0.365795886766565       -0.131920974033813
        0.425723641464880       -0.042116947851258        0.365798939907235       -0.131934297654078
        0.428142525791385       -0.042129458063113        0.365814698580373       -0.131946618353606
        0.430561410117890       -0.042141968341879        0.365830457277676       -0.131958939032860
        0.432980294444395       -0.042159393415481        0.365857567239552       -0.131969096317417
        0.435399178770900       -0.042176818563925        0.365884677236040       -0.131979253580074
        0.437818063097405       -0.042197496014917        0.365921003090005       -0.131986359572811
        0.440236947423910       -0.042218173546347        0.365957328986794       -0.131993465542813
        0.442655831750415       -0.042240222168980        0.366000124196923       -0.131996993850993
        0.445074716076920       -0.042262270874665        0.366042919454488       -0.132000522136397
        0.447493600403425       -0.042283748209398        0.366088991521677       -0.132000347974864
        0.449912484729930       -0.042305225626839        0.366135063637096       -0.132000173791282
        0.452331369056435       -0.042324271178865        0.366180936602266       -0.131996563942717
        0.454750253382940       -0.042343316810513        0.366226809612794       -0.131992954073769
        0.457169137709445       -0.042358277240767        0.366268896792481       -0.131986512120191
        0.459588022035950       -0.042373237744946        0.366310984011061       -0.131980070148849
        0.462006906362455       -0.042382774464448        0.366345787732266       -0.131971647838799
        0.464425790688960       -0.042392311249729        0.366380591482240       -0.131963225514468
        0.466844675015465       -0.042395492384539        0.366404942078304       -0.131953814440648
        0.469263559341970       -0.042398673574853        0.366429292689694       -0.131944403356789
        0.471682443668475       -0.042395050982327        0.366440626804857       -0.131935022002131
