#           time (fs)    |     mu_x (e.angstrom)   |     mu_y (e.angstrom)   |     mu_z (e.angstrom)   |
        0.000000000000000       -0.042283997138404        0.366198240842968       -0.131886026074585
        0.002418884326505       -0.042256583461649        0.366213702980296       -0.131735578873850
        0.004837768653010       -0.042229169805960        0.366229165267316       -0.131585131668872
        0.007256652979515       -0.042204617450000        0.366244186398797       -0.131445191433672
        0.009675537306020       -0.042180065107763        0.366259207568202       -0.131305251200759
        0.012094421632525       -0.042160918244269        0.366273316109380       -0.131185407101436
        0.014513305959030       -0.042141771391213        0.366287424676074       -0.131065563002760
        0.016932190285535       -0.042129976664147        0.366300100665171       -0.130973658061747
        0.019351074612040       -0.042118181943425        0.366312776664995       -0.130881753119604
        0.021769958938545       -0.042114877025293        0.366323455193535       -0.130823225545108
        0.024188843265050       -0.042111572109022        0.366334133717354       -0.130764697967774
        0.026607727591555       -0.042116967169496        0.366342234944964       -0.130742154760488
        0.029026611918060       -0.042122362227433        0.366350336153422       -0.130719611548977
        0.031445496244565       -0.042135727095947        0.366355320632541       -0.130732673063582
        0.033864380571070       -0.042149091958121        0.366360305080695       -0.130745734572988
        0.036283264897575       -0.042168849205131        0.366361747196867       -0.130791160954763
        0.038702149224080       -0.042188606442981        0.366363189274008       -0.130836587330887
        0.041121033550585       -0.042212518194859        0.366360856698739       -0.130908669159007
        0.043539917877090       -0.042236429936076        0.366358524080791       -0.130980750981534
        0.045958802203595       -0.042261855501069        0.366352448329918       -0.131071920058383
        0.048377686530100       -0.042287281055353        0.366346372537220       -0.131163089130138
        0.050796570856605       -0.042311474648248        0.366336895644013       -0.131264683924013
        0.053215455183110       -0.042335668231799        0.366327418713937       -0.131366278713564
        0.055634339509615       -0.042356082118336        0.366315203787446       -0.131469384684639
        0.058053223836120       -0.042376495998086        0.366302988832301       -0.131572490652314
        0.060472108162625       -0.042391054608861        0.366288987483059       -0.131668769962854
        0.062890992489130       -0.042405613216223        0.366274986115527       -0.131765049270827
        0.065309876815635       -0.042412928045388        0.366260362543464       -0.131847477654323
        0.067728761142140       -0.042420242874887        0.366245738964310       -0.131929906036003
        0.070147645468645       -0.042419745631070        0.366231757762055       -0.131993346358357
        0.072566529795150       -0.042419248391198        0.366217776563520       -0.132056786679348
        0.074985414121655       -0.042411229870011        0.366205667732862       -0.132098347549069
        0.077404298448160       -0.042403211355773        0.366193558915203       -0.132139908417525
        0.079823182774665       -0.042388764580128        0.366184378085117       -0.132159059947961
        0.082242067101170       -0.042374317813438        0.366175197274849       -0.132178211476871
        0.084660951427675       -0.042355194797168        0.366169700826159       -0.132176656346134
        0.087079835754180       -0.042336071790616        0.366164204401117       -0.132175101213247
        0.089498720080685       -0.042314472583537        0.366162757791934       -0.132156424694232
        0.091917604407190       -0.042292873385622        0.366161311207047       -0.132137748172232
        0.094336488733695       -0.042271192861727        0.366163844429337       -0.132106893125669
        0.096755373060200       -0.042249512345260        0.366166377673631       -0.132076038075214
        0.099174257386705       -0.042230073858723        0.366172395128571       -0.132038667726068
        0.101593141713210       -0.042210635377013        0.366178412600907       -0.132001297372094
        0.104012026039715       -0.042195440693019        0.366187056817020       -0.131963118378865
        0.106430910366220       -0.042180246010772        0.366195701044410       -0.131924939380021
        0.108849794692725       -0.042170767978854        0.366205861834789       -0.131891059413050
        0.111268679019230       -0.042161289945509        0.366216022629680       -0.131857179440037
        0.113687563345735       -0.042158328728785        0.366226476738726       -0.131831567233188
        0.116106447672240       -0.042155367507809        0.366236930845790       -0.131805955020122
        0.118525331998745       -0.042158983580501        0.366246492892764       -0.131791057520795
        0.120944216325250       -0.042162599646719        0.366256054932264       -0.131776160015395
        0.123363100651755       -0.042172128142510        0.366263719150319       -0.131772712435373
        0.125781984978260       -0.042181656630390        0.366271383356901       -0.131769264849791
        0.128200869304765       -0.042195798925297        0.366276437395852       -0.131776307260732
        0.130619753631270       -0.042209941211708        0.366281491421163       -0.131783349666739
        0.133038637957775       -0.042226921747143        0.366283587974970       -0.131798440741189
        0.135457522284280       -0.042243902274294        0.366285684514836       -0.131813531811517
        0.137876406610785       -0.042261672312081        0.366284862969014       -0.131833128877610
        0.140295290937290       -0.042279442342479        0.366284041410656       -0.131852725940501
        0.142714175263795       -0.042295908128393        0.366280699018113       -0.131872682959018
        0.145133059590300       -0.042312373908399        0.366277356615877       -0.131892639975257
        0.147551943916805       -0.042325624903463        0.366272175743962       -0.131908763171353
        0.149970828243310       -0.042338875894519        0.366266994866151       -0.131924886366042
        0.152389712569815       -0.042347389373308        0.366260838554307       -0.131933482221731
        0.154808596896320       -0.042355902850261        0.366254682240814       -0.131942078076791
        0.157227481222825       -0.042358704101081        0.366248473880837       -0.131940430628611
        0.159646365549330       -0.042361505352356        0.366242265523346       -0.131938783180473
        0.162065249875835       -0.042358267592609        0.366236869519796       -0.131925506701541
        0.164484134202340       -0.042355029835583        0.366231473522255       -0.131912230223150
        0.166903018528845       -0.042346104275094        0.366227592336246       -0.131887458301347
        0.169321902855350       -0.042337178719429        0.366223711158772       -0.131862686380422
        0.171740787181855       -0.042323552358637        0.366221810608639       -0.131828077423998
        0.174159671508360       -0.042309926004460        0.366219910068207       -0.131793468468691
        0.176578555834865       -0.042293112078378        0.366220179873745       -0.131752028654843
        0.178997440161370       -0.042276298160220        0.366220449688663       -0.131710588842210
        0.181416324487875       -0.042258170957763        0.366222800876485       -0.131666334154408
        0.183835208814380       -0.042240043763968        0.366225152071821       -0.131622079467922
        0.186254093140885       -0.042222635229110        0.366229247870212       -0.131579576490795
        0.188672977467390       -0.042205226703005        0.366233343672872       -0.131537073515098
        0.191091861793895       -0.042190506207561        0.366238656626035       -0.131500912112209
        0.193510746120400       -0.042175785720346        0.366243969579083       -0.131464750710960
        0.195929630446905       -0.042165446272627        0.366249855247392       -0.131439009154687
        0.198348514773410       -0.042155106832119        0.366255740910477       -0.131413267600396
        0.200767399099915       -0.042150380513468        0.366261517831249       -0.131401031366415
        0.203186283426420       -0.042145654200704        0.366267294741511       -0.131388795134859
        0.205605167752925       -0.042147176779302        0.366272321135661       -0.131391784376865
        0.208024052079430       -0.042148699362389        0.366277347514406       -0.131394773621814
        0.210442936405935       -0.042156439032369        0.366281087140904       -0.131413122015822
        0.212861820732440       -0.042164178705630        0.366284826748013       -0.131431470413376
        0.215280705058945       -0.042177437185264        0.366286898803801       -0.131463680987669
        0.217699589385450       -0.042190695667286        0.366288970837590       -0.131495891566139
        0.220118473711955       -0.042208182116956        0.366289181344929       -0.131538975220020
        0.222537358038460       -0.042225668568579        0.366289391829375       -0.131582058878606
        0.224956242364965       -0.042245638768350        0.366287746115230       -0.131631840761012
        0.227375126691470       -0.042265608970123        0.366286100379188       -0.131681622648650
        0.229794011017975       -0.042286054812911        0.366282797782119       -0.131733182709388
        0.232212895344480       -0.042306500658158        0.366279495165970       -0.131784742775820
        0.234631779670985       -0.042325369133116        0.366274907961238       -0.131832941722775
        0.237050663997490       -0.042344237611295        0.366270320741826       -0.131881140675906
        0.239469548323995       -0.042359654809199        0.366264959598856       -0.131921172962489
        0.241888432650500       -0.042375072011283        0.366259598446771       -0.131961205255740
        0.244307316977005       -0.042385546788251        0.366254066789675       -0.131989117660065
        0.246726201303510       -0.042396021570395        0.366248535129610       -0.132017030071572
        0.249145085630015       -0.042400605558594        0.366243474859641       -0.132030148258877
        0.251563969956520       -0.042405189552868        0.366238414592694       -0.132043266453915
        0.253982854283025       -0.042403575054959        0.366234445987503       -0.132040482204530
        0.256401738609530       -0.042401960563781        0.366230477390463       -0.132037697963432
        0.258820622936035       -0.042394505005044        0.366228136717404       -0.132019585341692
        0.261239507262540       -0.042387049453266        0.366225796056160       -0.132001472728798
        0.263658391589045       -0.042374723677463        0.366225475447179       -0.131970220601165
        0.266077275915550       -0.042362397908343        0.366225154851748       -0.131938968482915
        0.268496160242055       -0.042346664661309        0.366227050036183       -0.131898137306471
        0.270915044568560       -0.042330931420101        0.366228945233788       -0.131857306139894
        0.273333928895065       -0.042313568749427        0.366233017448025       -0.131811436515163
        0.275752813221570       -0.042296206083121        0.366237089673022       -0.131765566900851
        0.278171697548075       -0.042279097031536        0.366243048068023       -0.131719683808345
        0.280590581874580       -0.042261987982318        0.366249006469661       -0.131673800726942
        0.283009466201085       -0.042246902003106        0.366256316302764       -0.131632868795593
        0.285428350527590       -0.042231816023844        0.366263626137090       -0.131591936876282
        0.287847234854095       -0.042220208457036        0.366271545820008       -0.131560327191242
        0.290266119180600       -0.042208600887556        0.366279465498131       -0.131528717519476
        0.292685003507105       -0.042201454465295        0.366287112280091       -0.131509744809057
        0.295103887833610       -0.042194308037800        0.366294759051243       -0.131490772113475
        0.297522772160115       -0.042192035022288        0.366301199102985       -0.131486352885590
        0.299941656486620       -0.042189761999308        0.366307639138557       -0.131481933674440
        0.302360540813125       -0.042192177878995        0.366311993656572       -0.131492401976527
        0.304779425139630       -0.042194593749591        0.366316348154342       -0.131502870297484
        0.307198309466135       -0.042200964416695        0.366317903543442       -0.131526969861050
        0.309617193792640       -0.042207335073870        0.366319458909951       -0.131551069445706
        0.312036078119145       -0.042216490240762        0.366317766851836       -0.131586121103964
        0.314454962445650       -0.042225645397765        0.366316074770748       -0.131621172785421
        0.316873846772155       -0.042236142861167        0.366311027635280       -0.131663396484150
        0.319292731098660       -0.042246640315517        0.366305980478368       -0.131705620208012
        0.321711615425165       -0.042256959581972        0.366297849403684       -0.131750573872357
        0.324130499751670       -0.042267278840871        0.366289718310760       -0.131795527563287
        0.326549384078175       -0.042276019341117        0.366279145331593       -0.131838612438646
        0.328968268404680       -0.042284759835675        0.366268572338554       -0.131881697341475
        0.331387152731185       -0.042290818853834        0.366256513754177       -0.131918672573550
        0.333806037057690       -0.042296877868257        0.366244455160830       -0.131955647833374
        0.336224921384195       -0.042299586346658        0.366232080134072       -0.131983096697746
        0.338643805710700       -0.042302294823027        0.366219705103074       -0.132010545589553
        0.341062690037205       -0.042301494917326        0.366208260259371       -0.132026241886451
        0.343481574363710       -0.042300695010819        0.366196815415418       -0.132041938209916
        0.345900458690215       -0.042296750869359        0.366187471877997       -0.132045073139166
        0.348319343016720       -0.042292806727656        0.366178128343112       -0.132048208093700
        0.350738227343225       -0.042286548438789        0.366171831212704       -0.132039454021151
        0.353157111669730       -0.042280290149528        0.366165534086171       -0.132030699972314
        0.355575995996235       -0.042272899048215        0.366162875151198       -0.132012106031567
        0.357994880322740       -0.042265507945631        0.366160216219919       -0.131993512112826
        0.360413764649245       -0.042258358471865        0.366161348381901       -0.131968245451067
        0.362832648975750       -0.042251208995339        0.366162480546086       -0.131942978809580
        0.365251533302255       -0.042245687229260        0.366167087270766       -0.131914942374093
        0.367670417628760       -0.042240165458476        0.366171693995168       -0.131886905957205
        0.370089301955265       -0.042237486794541        0.366179019731292       -0.131860277152785
        0.372508186281770       -0.042234808123745        0.366186345464135       -0.131833648365340
        0.374927070608275       -0.042235856113804        0.366195284470745       -0.131812391250054
        0.377345954934780       -0.042236904094870        0.366204223471037       -0.131791134150235
        0.379764839261285       -0.042242109462719        0.366213456136178       -0.131778540226123
        0.382183723587790       -0.042247314819679        0.366222688792354       -0.131765946316063
        0.384602607914295       -0.042256588508463        0.366230847600897       -0.131764255226542
        0.387021492240800       -0.042265862184949        0.366239006398556       -0.131762564149707
        0.389440376567305       -0.042278589749404        0.366244849301367       -0.131772706213062
        0.391859260893810       -0.042291317300701        0.366250692192228       -0.131782848287787
        0.394278145220315       -0.042306414821490        0.366253259948199       -0.131804336879398
        0.396697029546820       -0.042321512328893        0.366255827692072       -0.131825825481018
        0.399115913873325       -0.042337537142114        0.366254563999788       -0.131856810408168
        0.401534798199830       -0.042353561942307        0.366253300296071       -0.131887795343934
        0.403953682526335       -0.042368865586283        0.366248118864031       -0.131925270418642
        0.406372566852840       -0.042384169218076        0.366242937421914       -0.131962745500470
        0.408791451179345       -0.042397075679913        0.366234227720689       -0.132002886476191
        0.411210335505850       -0.042409982130763        0.366225518011269       -0.132043027457545
        0.413629219832355       -0.042418972089069        0.366214090131591       -0.132081622205395
        0.416048104158860       -0.042427962037788        0.366202662246045       -0.132120216957330
        0.418466988485365       -0.042431843478959        0.366189639722202       -0.132153139742634
        0.420885872811870       -0.042435724911944        0.366176617195134       -0.132186062530505
        0.423304757138375       -0.042433772161779        0.366163293572753       -0.132209739566014
        0.425723641464880       -0.042431819404660        0.366149969949977       -0.132233416602785
        0.428142525791385       -0.042423866001234        0.366137649280472       -0.132245231169453
        0.430561410117890       -0.042415912591819        0.366125328613458       -0.132257045736396
        0.432980294444395       -0.042402388131235        0.366115171368473       -0.132255637920627
        0.435399178770900       -0.042388863665301        0.366105014128810       -0.132254230104547
        0.437818063097405       -0.042370770299204        0.366097908179429       -0.132239657845966
        0.440236947423910       -0.042352676928071        0.366090802237956       -0.132225085587042
        0.442655831750415       -0.042331507067094        0.366087273970975       -0.132198828985891
        0.445074716076920       -0.042310337201048        0.366083745714094       -0.132172572385095
        0.447493600403425       -0.042287939671527        0.366083919909559       -0.132137380428083
        0.449912484729930       -0.042265542136593        0.366084094116710       -0.132102188472825
        0.452331369056435       -0.042243949076327        0.366087703988511       -0.132061784637870
        0.454750253382940       -0.042222356009949        0.366091313872741       -0.132021380806896
        0.457169137709445       -0.042203586755440        0.366097755837680       -0.131980059534012
        0.459588022035950       -0.042184817493745        0.366104197814753       -0.131938738268132
        0.462006906362455       -0.042170678266635        0.366112620125303       -0.131900896351304
        0.464425790688960       -0.042156539030845        0.366121042446475       -0.131863054445228
        0.466844675015465       -0.042148438126986        0.366130453512499       -0.131832708697180
        0.469263559341970       -0.042140337212538        0.366139864586356       -0.131802362964251
        0.471682443668475       -0.042139134495716        0.366149245928114       -0.131782707223132
